#frequency	V(inoise)	V(onoise)
	1.000000e-003	4.684910e-007	4.014192e-007
	1.023293e-003	4.526278e-007	4.061004e-007
	1.047129e-003	4.374176e-007	4.109450e-007
	1.071519e-003	4.228305e-007	4.159571e-007
	1.096478e-003	4.088376e-007	4.211414e-007
	1.122018e-003	3.954118e-007	4.265021e-007
	1.148154e-003	3.825271e-007	4.320438e-007
	1.174898e-003	3.701585e-007	4.377713e-007
	1.202264e-003	3.582825e-007	4.436890e-007
	1.230269e-003	3.468765e-007	4.498019e-007
	1.258925e-003	3.359191e-007	4.561146e-007
	1.288250e-003	3.253898e-007	4.626321e-007
	1.318257e-003	3.152690e-007	4.693592e-007
	1.348963e-003	3.055383e-007	4.763011e-007
	1.380384e-003	2.961800e-007	4.834627e-007
	1.412538e-003	2.871771e-007	4.908493e-007
	1.445440e-003	2.785137e-007	4.984660e-007
	1.479108e-003	2.701746e-007	5.063181e-007
	1.513561e-003	2.621451e-007	5.144111e-007
	1.548817e-003	2.544114e-007	5.227503e-007
	1.584893e-003	2.469605e-007	5.313414e-007
	1.621810e-003	2.397797e-007	5.401900e-007
	1.659587e-003	2.328571e-007	5.493017e-007
	1.698244e-003	2.261814e-007	5.586825e-007
	1.737801e-003	2.197418e-007	5.683381e-007
	1.778279e-003	2.135280e-007	5.782747e-007
	1.819701e-003	2.075301e-007	5.884983e-007
	1.862087e-003	2.017391e-007	5.990151e-007
	1.905461e-003	1.961459e-007	6.098314e-007
	1.949845e-003	1.907421e-007	6.209538e-007
	1.995262e-003	1.855198e-007	6.323886e-007
	2.041738e-003	1.804713e-007	6.441426e-007
	2.089296e-003	1.755893e-007	6.562225e-007
	2.137962e-003	1.708670e-007	6.686353e-007
	2.187762e-003	1.662978e-007	6.813879e-007
	2.238721e-003	1.618755e-007	6.944875e-007
	2.290868e-003	1.575940e-007	7.079415e-007
	2.344229e-003	1.534477e-007	7.217572e-007
	2.398833e-003	1.494313e-007	7.359421e-007
	2.454709e-003	1.455395e-007	7.505041e-007
	2.511886e-003	1.417676e-007	7.654510e-007
	2.570396e-003	1.381108e-007	7.807906e-007
	2.630268e-003	1.345647e-007	7.965313e-007
	2.691535e-003	1.311251e-007	8.126813e-007
	2.754229e-003	1.277879e-007	8.292489e-007
	2.818383e-003	1.245493e-007	8.462429e-007
	2.884032e-003	1.214056e-007	8.636720e-007
	2.951209e-003	1.183534e-007	8.815452e-007
	3.019952e-003	1.153893e-007	8.998714e-007
	3.090295e-003	1.125101e-007	9.186600e-007
	3.162278e-003	1.097128e-007	9.379202e-007
	3.235937e-003	1.069944e-007	9.576617e-007
	3.311311e-003	1.043523e-007	9.778942e-007
	3.388442e-003	1.017837e-007	9.986275e-007
	3.467369e-003	9.928620e-008	1.019872e-006
	3.548134e-003	9.685728e-008	1.041637e-006
	3.630781e-003	9.449464e-008	1.063933e-006
	3.715352e-003	9.219608e-008	1.086771e-006
	3.801894e-003	8.995949e-008	1.110161e-006
	3.890451e-003	8.778281e-008	1.134114e-006
	3.981072e-003	8.566412e-008	1.158640e-006
	4.073803e-003	8.360155e-008	1.183751e-006
	4.168694e-003	8.159330e-008	1.209458e-006
	4.265795e-003	7.963767e-008	1.235771e-006
	4.365158e-003	7.773301e-008	1.262701e-006
	4.466836e-003	7.587774e-008	1.290260e-006
	4.570882e-003	7.407034e-008	1.318458e-006
	4.677351e-003	7.230935e-008	1.347307e-006
	4.786301e-003	7.059339e-008	1.376818e-006
	4.897788e-003	6.892109e-008	1.407001e-006
	5.011872e-003	6.729117e-008	1.437868e-006
	5.128614e-003	6.570237e-008	1.469428e-006
	5.248075e-003	6.415351e-008	1.501693e-006
	5.370318e-003	6.264342e-008	1.534672e-006
	5.495409e-003	6.117099e-008	1.568375e-006
	5.623413e-003	5.973515e-008	1.602811e-006
	5.754399e-003	5.833487e-008	1.637990e-006
	5.888437e-003	5.696914e-008	1.673919e-006
	6.025596e-003	5.563700e-008	1.710607e-006
	6.165950e-003	5.433752e-008	1.748060e-006
	6.309573e-003	5.306982e-008	1.786284e-006
	6.456542e-003	5.183301e-008	1.825283e-006
	6.606934e-003	5.062626e-008	1.865063e-006
	6.760830e-003	4.944877e-008	1.905625e-006
	6.918310e-003	4.829974e-008	1.946971e-006
	7.079458e-003	4.717842e-008	1.989099e-006
	7.244360e-003	4.608408e-008	2.032009e-006
	7.413102e-003	4.501600e-008	2.075694e-006
	7.585776e-003	4.397351e-008	2.120148e-006
	7.762471e-003	4.295593e-008	2.165362e-006
	7.943282e-003	4.196261e-008	2.211323e-006
	8.128305e-003	4.099294e-008	2.258017e-006
	8.317638e-003	4.004630e-008	2.305424e-006
	8.511380e-003	3.912211e-008	2.353522e-006
	8.709636e-003	3.821980e-008	2.402283e-006
	8.912509e-003	3.733881e-008	2.451677e-006
	9.120108e-003	3.647861e-008	2.501667e-006
	9.332543e-003	3.563867e-008	2.552211e-006
	9.549926e-003	3.481849e-008	2.603261e-006
	9.772372e-003	3.401758e-008	2.654764e-006
	1.000000e-002	3.323545e-008	2.706658e-006
	1.023293e-002	3.247165e-008	2.758876e-006
	1.047129e-002	3.172572e-008	2.811343e-006
	1.071519e-002	3.099722e-008	2.863974e-006
	1.096478e-002	3.028573e-008	2.916678e-006
	1.122018e-002	2.959082e-008	2.969353e-006
	1.148154e-002	2.891211e-008	3.021890e-006
	1.174898e-002	2.824918e-008	3.074170e-006
	1.202264e-002	2.760167e-008	3.126064e-006
	1.230269e-002	2.696920e-008	3.177434e-006
	1.258925e-002	2.635141e-008	3.228132e-006
	1.288250e-002	2.574794e-008	3.278002e-006
	1.318257e-002	2.515845e-008	3.326880e-006
	1.348963e-002	2.458261e-008	3.374592e-006
	1.380384e-002	2.402008e-008	3.420959e-006
	1.412538e-002	2.347057e-008	3.465795e-006
	1.445440e-002	2.293374e-008	3.508910e-006
	1.479108e-002	2.240931e-008	3.550110e-006
	1.513561e-002	2.189698e-008	3.589202e-006
	1.548817e-002	2.139646e-008	3.625990e-006
	1.584893e-002	2.090747e-008	3.660284e-006
	1.621810e-002	2.042975e-008	3.691899e-006
	1.659587e-002	1.996303e-008	3.720657e-006
	1.698244e-002	1.950704e-008	3.746390e-006
	1.737801e-002	1.906154e-008	3.768943e-006
	1.778279e-002	1.862628e-008	3.788177e-006
	1.819701e-002	1.820102e-008	3.803970e-006
	1.862087e-002	1.778553e-008	3.816219e-006
	1.905461e-002	1.737958e-008	3.824844e-006
	1.949845e-002	1.698295e-008	3.829786e-006
	1.995262e-002	1.659542e-008	3.831013e-006
	2.041738e-002	1.621677e-008	3.828513e-006
	2.089296e-002	1.584680e-008	3.822303e-006
	2.137962e-002	1.548532e-008	3.812422e-006
	2.187762e-002	1.513212e-008	3.798935e-006
	2.238721e-002	1.478700e-008	3.781927e-006
	2.290868e-002	1.444980e-008	3.761505e-006
	2.344229e-002	1.412031e-008	3.737797e-006
	2.398833e-002	1.379836e-008	3.710945e-006
	2.454709e-002	1.348378e-008	3.681108e-006
	2.511886e-002	1.317640e-008	3.648455e-006
	2.570396e-002	1.287605e-008	3.613167e-006
	2.630268e-002	1.258256e-008	3.575431e-006
	2.691535e-002	1.229579e-008	3.535439e-006
	2.754229e-002	1.201557e-008	3.493384e-006
	2.818383e-002	1.174176e-008	3.449461e-006
	2.884032e-002	1.147420e-008	3.403864e-006
	2.951209e-002	1.121276e-008	3.356780e-006
	3.019952e-002	1.095729e-008	3.308394e-006
	3.090295e-002	1.070765e-008	3.258885e-006
	3.162278e-002	1.046372e-008	3.208422e-006
	3.235937e-002	1.022536e-008	3.157170e-006
	3.311311e-002	9.992437e-009	3.105281e-006
	3.388442e-002	9.764833e-009	3.052901e-006
	3.467369e-002	9.542426e-009	3.000165e-006
	3.548134e-002	9.325095e-009	2.947200e-006
	3.630781e-002	9.112725e-009	2.894122e-006
	3.715352e-002	8.905200e-009	2.841039e-006
	3.801894e-002	8.702411e-009	2.788049e-006
	3.890451e-002	8.504250e-009	2.735241e-006
	3.981072e-002	8.310609e-009	2.682698e-006
	4.073803e-002	8.121385e-009	2.630493e-006
	4.168694e-002	7.936479e-009	2.578691e-006
	4.265795e-002	7.755791e-009	2.527351e-006
	4.365158e-002	7.579223e-009	2.476526e-006
	4.466836e-002	7.406683e-009	2.426261e-006
	4.570882e-002	7.238078e-009	2.376596e-006
	4.677351e-002	7.073317e-009	2.327567e-006
	4.786301e-002	6.912315e-009	2.279203e-006
	4.897788e-002	6.754984e-009	2.231530e-006
	5.011872e-002	6.601240e-009	2.184569e-006
	5.128614e-002	6.451003e-009	2.138338e-006
	5.248075e-002	6.304191e-009	2.092852e-006
	5.370318e-002	6.160726e-009	2.048121e-006
	5.495409e-002	6.020533e-009	2.004155e-006
	5.623413e-002	5.883536e-009	1.960958e-006
	5.754399e-002	5.749663e-009	1.918535e-006
	5.888437e-002	5.618842e-009	1.876886e-006
	6.025596e-002	5.491004e-009	1.836014e-006
	6.165950e-002	5.366081e-009	1.795914e-006
	6.309573e-002	5.244006e-009	1.756585e-006
	6.456542e-002	5.124714e-009	1.718021e-006
	6.606934e-002	5.008143e-009	1.680218e-006
	6.760830e-002	4.894229e-009	1.643169e-006
	6.918310e-002	4.782913e-009	1.606865e-006
	7.079458e-002	4.674135e-009	1.571301e-006
	7.244360e-002	4.567838e-009	1.536466e-006
	7.413102e-002	4.463964e-009	1.502351e-006
	7.585776e-002	4.362460e-009	1.468947e-006
	7.762471e-002	4.263270e-009	1.436243e-006
	7.943282e-002	4.166343e-009	1.404229e-006
	8.128305e-002	4.071626e-009	1.372895e-006
	8.317638e-002	3.979070e-009	1.342229e-006
	8.511380e-002	3.888625e-009	1.312220e-006
	8.709636e-002	3.800244e-009	1.282858e-006
	8.912509e-002	3.713878e-009	1.254130e-006
	9.120108e-002	3.629484e-009	1.226025e-006
	9.332543e-002	3.547015e-009	1.198533e-006
	9.549926e-002	3.466428e-009	1.171642e-006
	9.772372e-002	3.387681e-009	1.145340e-006
	1.000000e-001	3.310731e-009	1.119616e-006
	1.023293e-001	3.235537e-009	1.094459e-006
	1.047129e-001	3.162061e-009	1.069858e-006
	1.071519e-001	3.090262e-009	1.045802e-006
	1.096478e-001	3.020103e-009	1.022280e-006
	1.122018e-001	2.951547e-009	9.992816e-007
	1.148154e-001	2.884557e-009	9.767955e-007
	1.174898e-001	2.819097e-009	9.548116e-007
	1.202264e-001	2.755134e-009	9.333194e-007
	1.230269e-001	2.692633e-009	9.123088e-007
	1.258925e-001	2.631561e-009	8.917698e-007
	1.288250e-001	2.571886e-009	8.716925e-007
	1.318257e-001	2.513577e-009	8.520671e-007
	1.348963e-001	2.456601e-009	8.328842e-007
	1.380384e-001	2.400930e-009	8.141342e-007
	1.412538e-001	2.346534e-009	7.958080e-007
	1.445440e-001	2.293383e-009	7.778966e-007
	1.479108e-001	2.241451e-009	7.603912e-007
	1.513561e-001	2.190709e-009	7.432828e-007
	1.548817e-001	2.141131e-009	7.265632e-007
	1.584893e-001	2.092691e-009	7.102238e-007
	1.621810e-001	2.045363e-009	6.942566e-007
	1.659587e-001	1.999122e-009	6.786534e-007
	1.698244e-001	1.953943e-009	6.634063e-007
	1.737801e-001	1.909804e-009	6.485078e-007
	1.778279e-001	1.866680e-009	6.339502e-007
	1.819701e-001	1.824549e-009	6.197262e-007
	1.862087e-001	1.783390e-009	6.058285e-007
	1.905461e-001	1.743180e-009	5.922501e-007
	1.949845e-001	1.703898e-009	5.789841e-007
	1.995262e-001	1.665524e-009	5.660237e-007
	2.041738e-001	1.628038e-009	5.533624e-007
	2.089296e-001	1.591420e-009	5.409937e-007
	2.137962e-001	1.555651e-009	5.289113e-007
	2.187762e-001	1.520712e-009	5.171090e-007
	2.238721e-001	1.486587e-009	5.055809e-007
	2.290868e-001	1.453255e-009	4.943210e-007
	2.344229e-001	1.420701e-009	4.833237e-007
	2.398833e-001	1.388908e-009	4.725834e-007
	2.454709e-001	1.357860e-009	4.620946e-007
	2.511886e-001	1.327540e-009	4.518521e-007
	2.570396e-001	1.297932e-009	4.418506e-007
	2.630268e-001	1.269023e-009	4.320852e-007
	2.691535e-001	1.240797e-009	4.225509e-007
	2.754229e-001	1.213240e-009	4.132430e-007
	2.818383e-001	1.186338e-009	4.041568e-007
	2.884032e-001	1.160078e-009	3.952878e-007
	2.951209e-001	1.134447e-009	3.866317e-007
	3.019952e-001	1.109431e-009	3.781841e-007
	3.090295e-001	1.085020e-009	3.699411e-007
	3.162278e-001	1.061200e-009	3.618985e-007
	3.235937e-001	1.037961e-009	3.540525e-007
	3.311311e-001	1.015291e-009	3.463993e-007
	3.388442e-001	9.931792e-010	3.389355e-007
	3.467369e-001	9.716160e-010	3.316573e-007
	3.548134e-001	9.505912e-010	3.245615e-007
	3.630781e-001	9.300949e-010	3.176449e-007
	3.715352e-001	9.101182e-010	3.109044e-007
	3.801894e-001	8.906522e-010	3.043369e-007
	3.890451e-001	8.716883e-010	2.979395e-007
	3.981072e-001	8.532187e-010	2.917097e-007
	4.073803e-001	8.352355e-010	2.856447e-007
	4.168694e-001	8.177315e-010	2.797420e-007
	4.265795e-001	8.006999e-010	2.739995e-007
	4.365158e-001	7.841340e-010	2.684148e-007
	4.466836e-001	7.680279e-010	2.629859e-007
	4.570882e-001	7.523757e-010	2.577108e-007
	4.677351e-001	7.371722e-010	2.525878e-007
	4.786301e-001	7.224124e-010	2.476151e-007
	4.897788e-001	7.080919e-010	2.427913e-007
	5.011872e-001	6.942064e-010	2.381150e-007
	5.128614e-001	6.807522e-010	2.335849e-007
	5.248075e-001	6.677262e-010	2.291999e-007
	5.370318e-001	6.551253e-010	2.249591e-007
	5.495409e-001	6.429471e-010	2.208616e-007
	5.623413e-001	6.311895e-010	2.169067e-007
	5.754399e-001	6.198507e-010	2.130940e-007
	5.888437e-001	6.089295e-010	2.094229e-007
	6.025596e-001	5.984249e-010	2.058933e-007
	6.165950e-001	5.883364e-010	2.025049e-007
	6.309573e-001	5.786638e-010	1.992579e-007
	6.456542e-001	5.694072e-010	1.961522e-007
	6.606934e-001	5.605673e-010	1.931882e-007
	6.760830e-001	5.521447e-010	1.903662e-007
	6.918310e-001	5.441406e-010	1.876866e-007
	7.079458e-001	5.365565e-010	1.851500e-007
	7.244360e-001	5.293938e-010	1.827571e-007
	7.413102e-001	5.226545e-010	1.805086e-007
	7.585776e-001	5.163405e-010	1.784053e-007
	7.762471e-001	5.104541e-010	1.764480e-007
	7.943282e-001	5.049974e-010	1.746376e-007
	8.128305e-001	4.999728e-010	1.729750e-007
	8.317638e-001	4.953827e-010	1.714611e-007
	8.511380e-001	4.912293e-010	1.700969e-007
	8.709636e-001	4.875148e-010	1.688832e-007
	8.912509e-001	4.842414e-010	1.678209e-007
	9.120108e-001	4.814112e-010	1.669109e-007
	9.332543e-001	4.790258e-010	1.661538e-007
	9.549926e-001	4.770870e-010	1.655504e-007
	9.772372e-001	4.755959e-010	1.651012e-007
	1.000000e+000	4.745537e-010	1.648067e-007
	1.023293e+000	4.739611e-010	1.646673e-007
	1.047129e+000	4.738185e-010	1.646833e-007
	1.071519e+000	4.741260e-010	1.648549e-007
	1.096478e+000	4.748834e-010	1.651820e-007
	1.122018e+000	4.760902e-010	1.656646e-007
	1.148154e+000	4.777455e-010	1.663025e-007
	1.174898e+000	4.798481e-010	1.670955e-007
	1.202264e+000	4.823966e-010	1.680431e-007
	1.230269e+000	4.853893e-010	1.691448e-007
	1.258925e+000	4.888245e-010	1.704001e-007
	1.288250e+000	4.926999e-010	1.718084e-007
	1.318257e+000	4.970135e-010	1.733690e-007
	1.348963e+000	5.017629e-010	1.750811e-007
	1.380384e+000	5.069459e-010	1.769440e-007
	1.412538e+000	5.125601e-010	1.789570e-007
	1.445440e+000	5.186032e-010	1.811192e-007
	1.479108e+000	5.250729e-010	1.834301e-007
	1.513561e+000	5.319672e-010	1.858889e-007
	1.548817e+000	5.392841e-010	1.884948e-007
	1.584893e+000	5.470219e-010	1.912475e-007
	1.621810e+000	5.551790e-010	1.941462e-007
	1.659587e+000	5.637541e-010	1.971906e-007
	1.698244e+000	5.727462e-010	2.003803e-007
	1.737801e+000	5.821547e-010	2.037152e-007
	1.778279e+000	5.919790e-010	2.071949e-007
	1.819701e+000	6.022193e-010	2.108195e-007
	1.862087e+000	6.128757e-010	2.145891e-007
	1.905461e+000	6.239491e-010	2.185039e-007
	1.949845e+000	6.354403e-010	2.225642e-007
	1.995262e+000	6.473510e-010	2.267705e-007
	2.041738e+000	6.596829e-010	2.311233e-007
	2.089296e+000	6.724383e-010	2.356233e-007
	2.137962e+000	6.856199e-010	2.402715e-007
	2.187762e+000	6.992306e-010	2.450687e-007
	2.238721e+000	7.132740e-010	2.500162e-007
	2.290868e+000	7.277539e-010	2.551151e-007
	2.344229e+000	7.426746e-010	2.603669e-007
	2.398833e+000	7.580407e-010	2.657730e-007
	2.454709e+000	7.738574e-010	2.713351e-007
	2.511886e+000	7.901300e-010	2.770549e-007
	2.570396e+000	8.068644e-010	2.829343e-007
	2.630268e+000	8.240670e-010	2.889754e-007
	2.691535e+000	8.417443e-010	2.951803e-007
	2.754229e+000	8.599034e-010	3.015512e-007
	2.818383e+000	8.785517e-010	3.080905e-007
	2.884032e+000	8.976971e-010	3.148008e-007
	2.951209e+000	9.173477e-010	3.216846e-007
	3.019952e+000	9.375121e-010	3.287446e-007
	3.090295e+000	9.581993e-010	3.359837e-007
	3.162278e+000	9.794185e-010	3.434049e-007
	3.235937e+000	1.001180e-009	3.510112e-007
	3.311311e+000	1.023493e-009	3.588057e-007
	3.388442e+000	1.046368e-009	3.667918e-007
	3.467369e+000	1.069817e-009	3.749728e-007
	3.548134e+000	1.093850e-009	3.833522e-007
	3.630781e+000	1.118480e-009	3.919336e-007
	3.715352e+000	1.143717e-009	4.007206e-007
	3.801894e+000	1.169575e-009	4.097171e-007
	3.890451e+000	1.196067e-009	4.189268e-007
	3.981072e+000	1.223205e-009	4.283538e-007
	4.073803e+000	1.251003e-009	4.380022e-007
	4.168694e+000	1.279475e-009	4.478760e-007
	4.265795e+000	1.308636e-009	4.579795e-007
	4.365158e+000	1.338500e-009	4.683170e-007
	4.466836e+000	1.369083e-009	4.788928e-007
	4.570882e+000	1.400400e-009	4.897117e-007
	4.677351e+000	1.432467e-009	5.007779e-007
	4.786301e+000	1.465301e-009	5.120963e-007
	4.897788e+000	1.498918e-009	5.236714e-007
	5.011872e+000	1.533336e-009	5.355081e-007
	5.128614e+000	1.568574e-009	5.476113e-007
	5.248075e+000	1.604648e-009	5.599858e-007
	5.370318e+000	1.641579e-009	5.726365e-007
	5.495409e+000	1.679384e-009	5.855686e-007
	5.623413e+000	1.718085e-009	5.987870e-007
	5.754399e+000	1.757701e-009	6.122970e-007
	5.888437e+000	1.798252e-009	6.261036e-007
	6.025596e+000	1.839761e-009	6.402120e-007
	6.165950e+000	1.882249e-009	6.546275e-007
	6.309573e+000	1.925737e-009	6.693551e-007
	6.456542e+000	1.970250e-009	6.844004e-007
	6.606934e+000	2.015810e-009	6.997684e-007
	6.760830e+000	2.062442e-009	7.154644e-007
	6.918310e+000	2.110170e-009	7.314937e-007
	7.079458e+000	2.159019e-009	7.478614e-007
	7.244360e+000	2.209014e-009	7.645728e-007
	7.413102e+000	2.260183e-009	7.816330e-007
	7.585776e+000	2.312553e-009	7.990471e-007
	7.762471e+000	2.366150e-009	8.168200e-007
	7.943282e+000	2.421003e-009	8.349568e-007
	8.128305e+000	2.477142e-009	8.534622e-007
	8.317638e+000	2.534595e-009	8.723410e-007
	8.511380e+000	2.593393e-009	8.915979e-007
	8.709636e+000	2.653568e-009	9.112372e-007
	8.912509e+000	2.715152e-009	9.312632e-007
	9.120108e+000	2.778175e-009	9.516801e-007
	9.332543e+000	2.842673e-009	9.724918e-007
	9.549926e+000	2.908680e-009	9.937019e-007
	9.772372e+000	2.976229e-009	1.015314e-006
	1.000000e+001	3.045357e-009	1.037331e-006
	1.023293e+001	3.116101e-009	1.059756e-006
	1.047129e+001	3.188498e-009	1.082591e-006
	1.071519e+001	3.262586e-009	1.105839e-006
	1.096478e+001	3.338405e-009	1.129502e-006
	1.122018e+001	3.415995e-009	1.153580e-006
	1.148154e+001	3.495396e-009	1.178076e-006
	1.174898e+001	3.576652e-009	1.202988e-006
	1.202264e+001	3.659804e-009	1.228318e-006
	1.230269e+001	3.744898e-009	1.254064e-006
	1.258925e+001	3.831978e-009	1.280226e-006
	1.288250e+001	3.921090e-009	1.306801e-006
	1.318257e+001	4.012282e-009	1.333788e-006
	1.348963e+001	4.105602e-009	1.361182e-006
	1.380384e+001	4.201099e-009	1.388981e-006
	1.412538e+001	4.298824e-009	1.417179e-006
	1.445440e+001	4.398829e-009	1.445771e-006
	1.479108e+001	4.501167e-009	1.474751e-006
	1.513561e+001	4.605892e-009	1.504111e-006
	1.548817e+001	4.713060e-009	1.533843e-006
	1.584893e+001	4.822727e-009	1.563939e-006
	1.621810e+001	4.934952e-009	1.594386e-006
	1.659587e+001	5.049794e-009	1.625175e-006
	1.698244e+001	5.167315e-009	1.656292e-006
	1.737801e+001	5.287576e-009	1.687725e-006
	1.778279e+001	5.410641e-009	1.719458e-006
	1.819701e+001	5.536576e-009	1.751475e-006
	1.862087e+001	5.665447e-009	1.783760e-006
	1.905461e+001	5.797323e-009	1.816292e-006
	1.949845e+001	5.932273e-009	1.849054e-006
	1.995262e+001	6.070370e-009	1.882022e-006
	2.041738e+001	6.211686e-009	1.915176e-006
	2.089296e+001	6.356297e-009	1.948490e-006
	2.137962e+001	6.504279e-009	1.981940e-006
	2.187762e+001	6.655711e-009	2.015499e-006
	2.238721e+001	6.810673e-009	2.049138e-006
	2.290868e+001	6.969247e-009	2.082830e-006
	2.344229e+001	7.131518e-009	2.116542e-006
	2.398833e+001	7.297572e-009	2.150244e-006
	2.454709e+001	7.467497e-009	2.183901e-006
	2.511886e+001	7.641383e-009	2.217479e-006
	2.570396e+001	7.819321e-009	2.250943e-006
	2.630268e+001	8.001408e-009	2.284257e-006
	2.691535e+001	8.187739e-009	2.317382e-006
	2.754229e+001	8.378414e-009	2.350280e-006
	2.818383e+001	8.573533e-009	2.382911e-006
	2.884032e+001	8.773201e-009	2.415235e-006
	2.951209e+001	8.977523e-009	2.447212e-006
	3.019952e+001	9.186608e-009	2.478800e-006
	3.090295e+001	9.400567e-009	2.509958e-006
	3.162278e+001	9.619512e-009	2.540643e-006
	3.235937e+001	9.843562e-009	2.570814e-006
	3.311311e+001	1.007284e-008	2.600429e-006
